,Power (kW)
0,1.6655416056190282
1,1.8320957661809312
2,1.8558892176897746
3,1.808302314672088
4,1.808302314672088
5,1.7845088631632446
6,1.7845088631632446
7,1.7845088631632446
8,1.8320957661809312
9,1.8796826691986177
10,1.903476120707461
11,2.070030281269364
12,2.3079647963577963
13,2.7838338265346616
14,3.378670114255743
15,4.259027820082944
16,5.520080750051636
17,6.852514034546859
18,8.375294931112828
19,9.017718121851596
20,9.184272282413499
21,9.279446088448871
22,9.327032991466558
23,9.374619894484246
24,9.25565263694003
25,8.922544315816223
26,8.494262188657045
27,8.422881834130514
28,8.422881834130514
29,8.375294931112828
30,8.232534222059769
31,8.042186609989022
32,7.80425209490059
33,7.399763419250254
34,6.424231907387681
35,4.972831365348242
36,3.925919498959138
37,3.5214308233088025
38,3.3310832112380564
39,3.1169421476584676
40,2.9503879870965646
41,2.736246923516975
42,2.522105859937386
43,2.3317582478666394
44,2.165204087304737
45,2.093823732778207
46,1.9748564752339905
47,1.8558892176897746
48,1.6893350571278716
49,1.8320957661809312
50,1.8558892176897746
51,1.808302314672088
52,1.7845088631632446
53,1.7845088631632446
54,1.7845088631632446
55,1.7607154116544013
56,1.808302314672088
57,1.808302314672088
58,1.808302314672088
59,1.8558892176897746
60,1.9510630237251474
61,2.070030281269364
62,2.3317582478666394
63,2.6886600204992885
64,3.259702856711527
65,4.068680208012197
66,5.424906944016263
67,6.019743231737345
68,6.162503940790405
69,6.210090843808091
70,6.233884295316935
71,6.186297392299248
72,5.734221813631226
73,5.377320040998577
74,4.972831365348242
75,4.7824837532774955
76,4.639723044224436
77,4.568342689697906
78,4.496962335171376
79,4.425581980644847
80,4.2828212715917875
81,4.092473659521041
82,3.7593653383972354
83,3.093148696149624
84,2.8552141810611915
85,2.736246923516975
86,2.6410731174816022
87,2.4983124084285424
88,2.4031386023931693
89,2.355551699375483
90,2.3079647963577963
91,2.2365844418312664
92,2.11761718428705
93,2.0462368297605207
94,1.9510630237251474
95,1.9510630237251474
96,1.736921960145558
97,1.8796826691986177
98,1.8796826691986177
99,1.808302314672088
100,1.7607154116544013
101,1.736921960145558
102,1.736921960145558
103,1.7131285086367147
104,1.7131285086367147
105,1.6893350571278716
106,1.6655416056190282
107,1.6893350571278716
108,1.7607154116544013
109,1.808302314672088
110,1.8796826691986177
111,1.9272695722163042
112,1.998649926742834
113,2.11761718428705
114,2.26037789334011
115,2.522105859937386
116,2.6886600204992885
117,2.760040375025818
118,2.831420729552348
119,2.831420729552348
120,2.7124534720081317
121,2.6886600204992885
122,2.5696927629550723
123,2.5696927629550723
124,2.5696927629550723
125,2.545899311446229
126,2.522105859937386
127,2.4745189569196993
128,2.522105859937386
129,2.4983124084285424
130,2.379345150884326
131,2.4745189569196993
132,2.522105859937386
133,2.545899311446229
134,2.522105859937386
135,2.379345150884326
136,2.284171344848953
137,2.2127909903224237
138,2.1414106357958937
139,2.070030281269364
140,1.9510630237251474
141,1.903476120707461
142,1.808302314672088
143,1.7131285086367147
144,1.6655416056190282
145,1.8320957661809312
146,1.8558892176897746
147,1.808302314672088
148,1.808302314672088
149,1.7845088631632446
150,1.7845088631632446
151,1.7845088631632446
152,1.8320957661809312
153,1.8796826691986177
154,1.903476120707461
155,2.070030281269364
156,2.3079647963577963
157,2.7838338265346616
158,3.378670114255743
159,4.259027820082944
160,5.520080750051636
161,6.852514034546859
162,8.375294931112828
163,9.017718121851596
164,9.184272282413499
165,9.279446088448871
166,9.327032991466558
167,9.374619894484246
168,9.25565263694003
169,8.922544315816223
170,8.494262188657045
171,8.422881834130514
172,8.422881834130514
173,8.375294931112828
174,8.232534222059769
175,8.042186609989022
176,7.80425209490059
177,7.399763419250254
178,6.424231907387681
179,4.972831365348242
180,3.925919498959138
181,3.5214308233088025
182,3.3310832112380564
183,3.1169421476584676
184,2.9503879870965646
185,2.736246923516975
186,2.522105859937386
187,2.3317582478666394
188,2.165204087304737
189,2.093823732778207
190,1.9748564752339905
191,1.8558892176897746
192,1.6655416056190282
193,1.8320957661809312
194,1.8558892176897746
195,1.808302314672088
196,1.808302314672088
197,1.7845088631632446
198,1.7845088631632446
199,1.7845088631632446
200,1.8320957661809312
201,1.8796826691986177
202,1.903476120707461
203,2.070030281269364
204,2.3079647963577963
205,2.7838338265346616
206,3.378670114255743
207,4.259027820082944
208,5.520080750051636
209,6.852514034546859
210,8.375294931112828
211,9.017718121851596
212,9.184272282413499
213,9.279446088448871
214,9.327032991466558
215,9.374619894484246
216,9.25565263694003
217,8.922544315816223
218,8.494262188657045
219,8.422881834130514
220,8.422881834130514
221,8.375294931112828
222,8.232534222059769
223,8.042186609989022
224,7.80425209490059
225,7.399763419250254
226,6.424231907387681
227,4.972831365348242
228,3.925919498959138
229,3.5214308233088025
230,3.3310832112380564
231,3.1169421476584676
232,2.9503879870965646
233,2.736246923516975
234,2.522105859937386
235,2.3317582478666394
236,2.165204087304737
237,2.093823732778207
238,1.9748564752339905
239,1.8558892176897746
240,1.6655416056190282
241,1.8320957661809312
242,1.8558892176897746
243,1.808302314672088
244,1.808302314672088
245,1.7845088631632446
246,1.7845088631632446
247,1.7845088631632446
248,1.8320957661809312
249,1.8796826691986177
250,1.903476120707461
251,2.070030281269364
252,2.3079647963577963
253,2.7838338265346616
254,3.378670114255743
255,4.259027820082944
256,5.520080750051636
257,6.852514034546859
258,8.375294931112828
259,9.017718121851596
260,9.184272282413499
261,9.279446088448871
262,9.327032991466558
263,9.374619894484246
264,9.25565263694003
265,8.922544315816223
266,8.494262188657045
267,8.422881834130514
268,8.422881834130514
269,8.375294931112828
270,8.232534222059769
271,8.042186609989022
272,7.80425209490059
273,7.399763419250254
274,6.424231907387681
275,4.972831365348242
276,3.925919498959138
277,3.5214308233088025
278,3.3310832112380564
279,3.1169421476584676
280,2.9503879870965646
281,2.736246923516975
282,2.522105859937386
283,2.3317582478666394
284,2.165204087304737
285,2.093823732778207
286,1.9748564752339905
287,1.8558892176897746
288,1.6655416056190282
289,1.8320957661809312
290,1.8558892176897746
291,1.808302314672088
292,1.808302314672088
293,1.7845088631632446
294,1.7845088631632446
295,1.7845088631632446
296,1.8320957661809312
297,1.8796826691986177
298,1.903476120707461
299,2.070030281269364
300,2.3079647963577963
301,2.7838338265346616
302,3.378670114255743
303,4.259027820082944
304,5.520080750051636
305,6.852514034546859
306,8.375294931112828
307,9.017718121851596
308,9.184272282413499
309,9.279446088448871
310,9.327032991466558
311,9.374619894484246
312,9.25565263694003
313,8.922544315816223
314,8.494262188657045
315,8.422881834130514
316,8.422881834130514
317,8.375294931112828
318,8.232534222059769
319,8.042186609989022
320,7.80425209490059
321,7.399763419250254
322,6.424231907387681
323,4.972831365348242
324,3.925919498959138
325,3.5214308233088025
326,3.3310832112380564
327,3.1169421476584676
328,2.9503879870965646
329,2.736246923516975
330,2.522105859937386
331,2.3317582478666394
332,2.165204087304737
333,2.093823732778207
334,1.9748564752339905
335,1.8558892176897746
336,1.6655416056190282
337,1.8320957661809312
338,1.8558892176897746
339,1.808302314672088
340,1.808302314672088
341,1.7845088631632446
342,1.7845088631632446
343,1.7845088631632446
344,1.8320957661809312
345,1.8796826691986177
346,1.903476120707461
347,2.070030281269364
348,2.3079647963577963
349,2.7838338265346616
350,3.378670114255743
351,4.259027820082944
352,5.520080750051636
353,6.852514034546859
354,8.375294931112828
355,9.017718121851596
356,9.184272282413499
357,9.279446088448871
358,9.327032991466558
359,9.374619894484246
360,9.25565263694003
361,8.922544315816223
362,8.494262188657045
363,8.422881834130514
364,8.422881834130514
365,8.375294931112828
366,8.232534222059769
367,8.042186609989022
368,7.80425209490059
369,7.399763419250254
370,6.424231907387681
371,4.972831365348242
372,3.925919498959138
373,3.5214308233088025
374,3.3310832112380564
375,3.1169421476584676
376,2.9503879870965646
377,2.736246923516975
378,2.522105859937386
379,2.3317582478666394
380,2.165204087304737
381,2.093823732778207
382,1.9748564752339905
383,1.8558892176897746
384,1.6893350571278716
385,1.8320957661809312
386,1.8558892176897746
387,1.808302314672088
388,1.7845088631632446
389,1.7845088631632446
390,1.7845088631632446
391,1.7607154116544013
392,1.808302314672088
393,1.808302314672088
394,1.808302314672088
395,1.8558892176897746
396,1.9510630237251474
397,2.070030281269364
398,2.3317582478666394
399,2.6886600204992885
400,3.259702856711527
401,4.068680208012197
402,5.424906944016263
403,6.019743231737345
404,6.162503940790405
405,6.210090843808091
406,6.233884295316935
407,6.186297392299248
408,5.734221813631226
409,5.377320040998577
410,4.972831365348242
411,4.7824837532774955
412,4.639723044224436
413,4.568342689697906
414,4.496962335171376
415,4.425581980644847
416,4.2828212715917875
417,4.092473659521041
418,3.7593653383972354
419,3.093148696149624
420,2.8552141810611915
421,2.736246923516975
422,2.6410731174816022
423,2.4983124084285424
424,2.4031386023931693
425,2.355551699375483
426,2.3079647963577963
427,2.2365844418312664
428,2.11761718428705
429,2.0462368297605207
430,1.9510630237251474
431,1.9510630237251474
432,1.736921960145558
433,1.8796826691986177
434,1.8796826691986177
435,1.808302314672088
436,1.7607154116544013
437,1.736921960145558
438,1.736921960145558
439,1.7131285086367147
440,1.7131285086367147
441,1.6893350571278716
442,1.6655416056190282
443,1.6893350571278716
444,1.7607154116544013
445,1.808302314672088
446,1.8796826691986177
447,1.9272695722163042
448,1.998649926742834
449,2.11761718428705
450,2.26037789334011
451,2.522105859937386
452,2.6886600204992885
453,2.760040375025818
454,2.831420729552348
455,2.831420729552348
456,2.7124534720081317
457,2.6886600204992885
458,2.5696927629550723
459,2.5696927629550723
460,2.5696927629550723
461,2.545899311446229
462,2.522105859937386
463,2.4745189569196993
464,2.522105859937386
465,2.4983124084285424
466,2.379345150884326
467,2.4745189569196993
468,2.522105859937386
469,2.545899311446229
470,2.522105859937386
471,2.379345150884326
472,2.284171344848953
473,2.2127909903224237
474,2.1414106357958937
475,2.070030281269364
476,1.9510630237251474
477,1.903476120707461
478,1.808302314672088
479,1.7131285086367147
480,1.6655416056190282
481,1.8320957661809312
482,1.8558892176897746
483,1.808302314672088
484,1.808302314672088
485,1.7845088631632446
486,1.7845088631632446
487,1.7845088631632446
488,1.8320957661809312
489,1.8796826691986177
490,1.903476120707461
491,2.070030281269364
492,2.3079647963577963
493,2.7838338265346616
494,3.378670114255743
495,4.259027820082944
496,5.520080750051636
497,6.852514034546859
498,8.375294931112828
499,9.017718121851596
500,9.184272282413499
501,9.279446088448871
502,9.327032991466558
503,9.374619894484246
504,9.25565263694003
505,8.922544315816223
506,8.494262188657045
507,8.422881834130514
508,8.422881834130514
509,8.375294931112828
510,8.232534222059769
511,8.042186609989022
512,7.80425209490059
513,7.399763419250254
514,6.424231907387681
515,4.972831365348242
516,3.925919498959138
517,3.5214308233088025
518,3.3310832112380564
519,3.1169421476584676
520,2.9503879870965646
521,2.736246923516975
522,2.522105859937386
523,2.3317582478666394
524,2.165204087304737
525,2.093823732778207
526,1.9748564752339905
527,1.8558892176897746
528,1.6655416056190282
529,1.8320957661809312
530,1.8558892176897746
531,1.808302314672088
532,1.808302314672088
533,1.7845088631632446
534,1.7845088631632446
535,1.7845088631632446
536,1.8320957661809312
537,1.8796826691986177
538,1.903476120707461
539,2.070030281269364
540,2.3079647963577963
541,2.7838338265346616
542,3.378670114255743
543,4.259027820082944
544,5.520080750051636
545,6.852514034546859
546,8.375294931112828
547,9.017718121851596
548,9.184272282413499
549,9.279446088448871
550,9.327032991466558
551,9.374619894484246
552,9.25565263694003
553,8.922544315816223
554,8.494262188657045
555,8.422881834130514
556,8.422881834130514
557,8.375294931112828
558,8.232534222059769
559,8.042186609989022
560,7.80425209490059
561,7.399763419250254
562,6.424231907387681
563,4.972831365348242
564,3.925919498959138
565,3.5214308233088025
566,3.3310832112380564
567,3.1169421476584676
568,2.9503879870965646
569,2.736246923516975
570,2.522105859937386
571,2.3317582478666394
572,2.165204087304737
573,2.093823732778207
574,1.9748564752339905
575,1.8558892176897746
576,1.6655416056190282
577,1.8320957661809312
578,1.8558892176897746
579,1.808302314672088
580,1.808302314672088
581,1.7845088631632446
582,1.7845088631632446
583,1.7845088631632446
584,1.8320957661809312
585,1.8796826691986177
586,1.903476120707461
587,2.070030281269364
588,2.3079647963577963
589,2.7838338265346616
590,3.378670114255743
591,4.259027820082944
592,5.520080750051636
593,6.852514034546859
594,8.375294931112828
595,9.017718121851596
596,9.184272282413499
597,9.279446088448871
598,9.327032991466558
599,9.374619894484246
600,9.25565263694003
601,8.922544315816223
602,8.494262188657045
603,8.422881834130514
604,8.422881834130514
605,8.375294931112828
606,8.232534222059769
607,8.042186609989022
608,7.80425209490059
609,7.399763419250254
610,6.424231907387681
611,4.972831365348242
612,3.925919498959138
613,3.5214308233088025
614,3.3310832112380564
615,3.1169421476584676
616,2.9503879870965646
617,2.736246923516975
618,2.522105859937386
619,2.3317582478666394
620,2.165204087304737
621,2.093823732778207
622,1.9748564752339905
623,1.8558892176897746
624,1.6655416056190282
625,1.8320957661809312
626,1.8558892176897746
627,1.808302314672088
628,1.808302314672088
629,1.7845088631632446
630,1.7845088631632446
631,1.7845088631632446
632,1.8320957661809312
633,1.8796826691986177
634,1.903476120707461
635,2.070030281269364
636,2.3079647963577963
637,2.7838338265346616
638,3.378670114255743
639,4.259027820082944
640,5.520080750051636
641,6.852514034546859
642,8.375294931112828
643,9.017718121851596
644,9.184272282413499
645,9.279446088448871
646,9.327032991466558
647,9.374619894484246
648,9.25565263694003
649,8.922544315816223
650,8.494262188657045
651,8.422881834130514
652,8.422881834130514
653,8.375294931112828
654,8.232534222059769
655,8.042186609989022
656,7.80425209490059
657,7.399763419250254
658,6.424231907387681
659,4.972831365348242
660,3.925919498959138
661,3.5214308233088025
662,3.3310832112380564
663,3.1169421476584676
664,2.9503879870965646
665,2.736246923516975
666,2.522105859937386
667,2.3317582478666394
668,2.165204087304737
669,2.093823732778207
670,1.9748564752339905
671,1.8558892176897746
672,1.6655416056190282
673,1.8320957661809312
674,1.8558892176897746
675,1.808302314672088
676,1.808302314672088
677,1.7845088631632446
678,1.7845088631632446
679,1.7845088631632446
680,1.8320957661809312
681,1.8796826691986177
682,1.903476120707461
683,2.070030281269364
684,2.3079647963577963
685,2.7838338265346616
686,3.378670114255743
687,4.259027820082944
688,5.520080750051636
689,6.852514034546859
690,8.375294931112828
691,9.017718121851596
692,9.184272282413499
693,9.279446088448871
694,9.327032991466558
695,9.374619894484246
696,9.25565263694003
697,8.922544315816223
698,8.494262188657045
699,8.422881834130514
700,8.422881834130514
701,8.375294931112828
702,8.232534222059769
703,8.042186609989022
704,7.80425209490059
705,7.399763419250254
706,6.424231907387681
707,4.972831365348242
708,3.925919498959138
709,3.5214308233088025
710,3.3310832112380564
711,3.1169421476584676
712,2.9503879870965646
713,2.736246923516975
714,2.522105859937386
715,2.3317582478666394
716,2.165204087304737
717,2.093823732778207
718,1.9748564752339905
719,1.8558892176897746
720,1.6893350571278716
721,1.8320957661809312
722,1.8558892176897746
723,1.808302314672088
724,1.7845088631632446
725,1.7845088631632446
726,1.7845088631632446
727,1.7607154116544013
728,1.808302314672088
729,1.808302314672088
730,1.808302314672088
731,1.8558892176897746
732,1.9510630237251474
733,2.070030281269364
734,2.3317582478666394
735,2.6886600204992885
736,3.259702856711527
737,4.068680208012197
738,5.424906944016263
739,6.019743231737345
740,6.162503940790405
741,6.210090843808091
742,6.233884295316935
743,6.186297392299248
744,5.734221813631226
745,5.377320040998577
746,4.972831365348242
747,4.7824837532774955
748,4.639723044224436
749,4.568342689697906
750,4.496962335171376
751,4.425581980644847
752,4.2828212715917875
753,4.092473659521041
754,3.7593653383972354
755,3.093148696149624
756,2.8552141810611915
757,2.736246923516975
758,2.6410731174816022
759,2.4983124084285424
760,2.4031386023931693
761,2.355551699375483
762,2.3079647963577963
763,2.2365844418312664
764,2.11761718428705
765,2.0462368297605207
766,1.9510630237251474
767,1.9510630237251474
768,1.736921960145558
769,1.8796826691986177
770,1.8796826691986177
771,1.808302314672088
772,1.7607154116544013
773,1.736921960145558
774,1.736921960145558
775,1.7131285086367147
776,1.7131285086367147
777,1.6893350571278716
778,1.6655416056190282
779,1.6893350571278716
780,1.7607154116544013
781,1.808302314672088
782,1.8796826691986177
783,1.9272695722163042
784,1.998649926742834
785,2.11761718428705
786,2.26037789334011
787,2.522105859937386
788,2.6886600204992885
789,2.760040375025818
790,2.831420729552348
791,2.831420729552348
792,2.7124534720081317
793,2.6886600204992885
794,2.5696927629550723
795,2.5696927629550723
796,2.5696927629550723
797,2.545899311446229
798,2.522105859937386
799,2.4745189569196993
800,2.522105859937386
801,2.4983124084285424
802,2.379345150884326
803,2.4745189569196993
804,2.522105859937386
805,2.545899311446229
806,2.522105859937386
807,2.379345150884326
808,2.284171344848953
809,2.2127909903224237
810,2.1414106357958937
811,2.070030281269364
812,1.9510630237251474
813,1.903476120707461
814,1.808302314672088
815,1.7131285086367147
816,1.6655416056190282
817,1.8320957661809312
818,1.8558892176897746
819,1.808302314672088
820,1.808302314672088
821,1.7845088631632446
822,1.7845088631632446
823,1.7845088631632446
824,1.8320957661809312
825,1.8796826691986177
826,1.903476120707461
827,2.070030281269364
828,2.3079647963577963
829,2.7838338265346616
830,3.378670114255743
831,4.259027820082944
832,5.520080750051636
833,6.852514034546859
834,8.375294931112828
835,9.017718121851596
836,9.184272282413499
837,9.279446088448871
838,9.327032991466558
839,9.374619894484246
840,9.25565263694003
841,8.922544315816223
842,8.494262188657045
843,8.422881834130514
844,8.422881834130514
845,8.375294931112828
846,8.232534222059769
847,8.042186609989022
848,7.80425209490059
849,7.399763419250254
850,6.424231907387681
851,4.972831365348242
852,3.925919498959138
853,3.5214308233088025
854,3.3310832112380564
855,3.1169421476584676
856,2.9503879870965646
857,2.736246923516975
858,2.522105859937386
859,2.3317582478666394
860,2.165204087304737
861,2.093823732778207
862,1.9748564752339905
863,1.8558892176897746
864,1.6655416056190282
865,1.8320957661809312
866,1.8558892176897746
867,1.808302314672088
868,1.808302314672088
869,1.7845088631632446
870,1.7845088631632446
871,1.7845088631632446
872,1.8320957661809312
873,1.8796826691986177
874,1.903476120707461
875,2.070030281269364
876,2.3079647963577963
877,2.7838338265346616
878,3.378670114255743
879,4.259027820082944
880,5.520080750051636
881,6.852514034546859
882,8.375294931112828
883,9.017718121851596
884,9.184272282413499
885,9.279446088448871
886,9.327032991466558
887,9.374619894484246
888,9.25565263694003
889,8.922544315816223
890,8.494262188657045
891,8.422881834130514
892,8.422881834130514
893,8.375294931112828
894,8.232534222059769
895,8.042186609989022
896,7.80425209490059
897,7.399763419250254
898,6.424231907387681
